#ReRa Photor QE measurement
Wavelength [nm]	QE[-] (Reflectance Transmittance 300-1750_calibration_calibration)	Wavelength [nm]	QE[-] (JE794 inverted ARC_Total reflectance centre)	Wavelength [nm]	QE[-] (JE794 inverted ARC_Diffuse reflectance centre)	
300	0.9717	300	0.332978499879855	300	0.20722072550951	
305	0.972	305	0.383933423774323	305	0.150219889447996	
310	0.9723	310	0.330018418429308	310	0.177493671585524	
315	0.9726	315	0.4019737721344	315	0.221124636767064	
320	0.9729	320	0.374352211363793	320	0.162579285082466	
325	0.9732	325	0.358377395610039	325	0.149585109360049	
330	0.9735	330	0.4091953409078	330	0.135660998533374	
335	0.9738	335	0.354492168022288	335	0.162188730571046	
340	0.9741	340	0.30581949966302	340	0.136511310048248	
345	0.9744	345	0.200569820675452	345	0.0738159234204323	
350	0.9747	350	0.129415593790223	350	0.0275509663289714	
355	0.97507	355	0.112410203267343	355	0.0209190265833182	
360	0.97544	360	0.0813132749304113	360	0.0188883443405367	
365	0.97581	365	0.068368105933575	365	0.0196290085437222	
370	0.97618	370	0.0501356011307393	370	0.0120093504736557	
375	0.97655	375	0.0321112858229945	375	0.0101578997213846	
380	0.97692	380	0.0210420606283107	380	0.00949147594607821	
385	0.97729	385	0.0127988992402979	385	0.00721722370737958	
390	0.97766	390	0.00961593845684591	390	0.00703841414545804	
395	0.97803	395	0.00933133019844005	395	0.00645740887258785	
400	0.9784	400	0.0106285319326777	400	0.0056525345441867	
405	0.97864	405	0.0139229500661491	405	0.00535606372380996	
410	0.97888	410	0.0170290242421298	410	0.00474682079901506	
415	0.97912	415	0.0208864205197958	415	0.00530194480665369	
420	0.97936	420	0.0234030036466982	420	0.00508800096956793	
425	0.9796	425	0.024279474145615	425	0.00486543050668964	
430	0.97984	430	0.0248326005659474	430	0.00519235577588596	
435	0.98008	435	0.02560245721378	435	0.00506618054023376	
440	0.98032	440	0.0272599101095404	440	0.00522799592498108	
445	0.98056	445	0.0269569531424652	445	0.00571935013362557	
450	0.9808	450	0.0265546776155491	450	0.00637462148567092	
455	0.980920000000001	455	0.0295466130674045	455	0.0132792133463348	
460	0.98104	460	0.0411147098648243	460	0.00670455894465271	
465	0.98116	465	0.0502347354607069	465	0.00972582002047507	
470	0.98128	470	0.0448435877944641	470	0.0104659092525846	
475	0.9814	475	0.0399780183492893	475	0.0110039658259124	
480	0.98152	480	0.0431721925867821	480	0.0159185671496503	
485	0.98164	485	0.0590680584552309	485	0.0173367022457398	
490	0.98176	490	0.0798542211157294	490	0.017319795897842	
495	0.98188	495	0.0834283220878189	495	0.018324355501927	
500	0.982	500	0.0725560148958211	500	0.0207105484600093	
505	0.98205	505	0.0546088896293519	505	0.0250576237495213	
510	0.9821	510	0.0426003226436872	510	0.0273992913964618	
515	0.98215	515	0.0488038698747832	515	0.0308628199758308	
520	0.9822	520	0.0694222060178369	520	0.034868685950872	
525	0.98225	525	0.0936082672649246	525	0.0338233818261884	
530	0.9823	530	0.1059033171372	530	0.0362170797456764	
535	0.98235	535	0.106985161151885	535	0.0400900592688561	
540	0.9824	540	0.0947467098818884	540	0.0428495904107951	
545	0.98245	545	0.0785311955999533	545	0.0481036822237019	
550	0.9825	550	0.0691724132377032	550	0.0520386854824673	
555	0.98258	555	0.0708680555398848	555	0.055579578454745	
560	0.98266	560	0.0879065426947193	560	0.0579532439413745	
565	0.98274	565	0.112984698782827	565	0.0594001761034769	
570	0.98282	570	0.139448097974161	570	0.0597619338498048	
575	0.9829	575	0.159980905927706	575	0.0606115681381618	
580	0.98298	580	0.170734877665848	580	0.0617368090901332	
585	0.98306	585	0.170408500815661	585	0.0643826719550826	
590	0.98314	590	0.163056307555702	590	0.0690024769018676	
595	0.98322	595	0.1496452013958	595	0.0745257290447026	
600	0.9833	600	0.13534606272679	600	0.0808725844337169	
605	0.98322	605	0.126635387360934	605	0.0894108836881525	
610	0.98314	610	0.123954060826292	610	0.0964061659092625	
615	0.98306	615	0.131766924757573	615	0.102770773316939	
620	0.98298	620	0.150605027906293	620	0.107848596263533	
625	0.9829	625	0.176983233066028	625	0.111707813889449	
630	0.98282	630	0.210318707575692	630	0.114815112480668	
635	0.98274	635	0.243654616230232	635	0.116203654613346	
640	0.98266	640	0.274879945999765	640	0.117310357689478	
645	0.98258	645	0.301511847297015	645	0.117830590158618	
650	0.9825	650	0.322347871743201	650	0.11964519697337	
655	0.98253	655	0.342144979954906	655	0.125639805450072	
660	0.98256	660	0.36748807302952	660	0.138970270924171	
665	0.98259	665	0.404455533886532	665	0.164259541734487	
670	0.98262	670	0.440093629632032	670	0.197012939067288	
675	0.98265	675	0.463252629145678	675	0.230704697360665	
680	0.98268	680	0.480792409079902	680	0.265812444780209	
685	0.98271	685	0.494472440486897	685	0.300110379983134	
690	0.98274	690	0.506865646675035	690	0.329960786685174	
695	0.98277	695	0.515612405014412	695	0.347979337310681	
700	0.9828	700	0.519408217587853	700	0.351240927007491	
705	0.98277	705	0.522826484266853	705	0.343549640715793	
710	0.98274	710	0.524902678429559	710	0.324267573463296	
715	0.98271	715	0.530386106870039	715	0.301627446915307	
720	0.98268	720	0.535033994584844	720	0.27775767662158	
725	0.98265	725	0.541852486264449	725	0.254958806950893	
730	0.98262	730	0.551163934285529	730	0.235696122628328	
735	0.98259	735	0.557212163299261	735	0.220625678536379	
740	0.98256	740	0.566684933111355	740	0.210494322425004	
745	0.98253	745	0.573648151409649	745	0.203684902020491	
750	0.9825	750	0.58133775925546	750	0.201734341051615	
755	0.98258	755	0.587819306920366	755	0.205487806035408	
760	0.98266	760	0.595153771364228	760	0.212662738457591	
765	0.98274	765	0.603651223876122	765	0.226229549353303	
770	0.98282	770	0.612228828695472	770	0.244835188620096	
775	0.9829	775	0.622851497332912	775	0.26808902620601	
780	0.98298	780	0.629494371427502	780	0.298773653406386	
785	0.98306	785	0.635008993233413	785	0.331978804382374	
790	0.98314	790	0.639634287635719	790	0.367072929421271	
795	0.98322	795	0.634471619404009	795	0.399917657097159	
800	0.9833	800	0.629813815607942	800	0.427003276276242	
805	0.9832	805	0.620062977312647	805	0.445355090872543	
810	0.9831	810	0.610542456884464	810	0.452164949954635	
815	0.983	815	0.599526690036908	815	0.449743853818193	
820	0.9829	820	0.590902262387235	820	0.432969291219176	
825	0.9828	825	0.58654139892351	825	0.409198471480716	
830	0.9827	830	0.584453713315672	830	0.380052214426259	
835	0.9826	835	0.586909111479515	835	0.348733248871979	
840	0.9825	840	0.593362065594746	840	0.316454721578134	
845	0.9824	845	0.599153411751191	845	0.290458585653819	
850	0.9823	850	0.608527181119248	850	0.265653675631282	
855	0.98232	855	0.617415661473145	855	0.245280437570393	
860	0.98234	860	0.626971428999203	860	0.227961320915632	
865	0.98236	865	0.638381007867132	865	0.214888474723541	
870	0.98238	870	0.648430338856757	870	0.204779525453447	
875	0.9824	875	0.657147752658741	875	0.195176982988341	
880	0.98242	880	0.664757269192107	880	0.190865601333927	
885	0.98244	885	0.672931376368029	885	0.188406070610665	
890	0.98246	890	0.67961160576678	890	0.186181130065354	
895	0.98248	895	0.685575860125013	895	0.187599262441543	
900	0.9825	900	0.692053856761488	900	0.190242713113227	
905	0.98257	905	0.695366916914751	905	0.194526344530402	
910	0.98264	910	0.701220535904291	910	0.202933070422247	
915	0.98271	915	0.702664335353379	915	0.213160070768667	
920	0.98278	920	0.704091170411794	920	0.227000610144531	
925	0.98285	925	0.707087562357461	925	0.241972606275464	
930	0.98292	930	0.705362562753526	930	0.261183075681522	
935	0.98299	935	0.705609645986238	935	0.28263213248506	
940	0.98306	940	0.703507804943689	940	0.307687398764127	
945	0.98313	945	0.702776246548491	945	0.340983493945796	
950	0.9832	950	0.697260506148958	950	0.368386563736349	
955	0.98316	955	0.689363570755499	955	0.397292610117706	
960	0.98312	960	0.681682991609301	960	0.425739889011629	
965	0.98308	965	0.671500735799361	965	0.451266347747505	
970	0.98304	970	0.660232877646505	970	0.470458769200957	
975	0.983	975	0.647084004589722	975	0.481314194405922	
980	0.98296	980	0.636113035150677	980	0.488536717402724	
985	0.98292	985	0.623024441665248	985	0.484213616245378	
990	0.98288	990	0.614845786714821	990	0.473125083878514	
995	0.98284	995	0.608099399289735	995	0.456141751366955	
1000	0.9828	1000	0.603485961660964	1000	0.433989080819504	
1005	0.98269	1005	0.602098209078088	1005	0.408969266991165	
1010	0.98258	1010	0.603126573595184	1010	0.383939697185211	
1015	0.98247	1015	0.607164240920138	1015	0.358781893711265	
1020	0.98236	1020	0.609619792563002	1020	0.33476016678943	
1025	0.98225	1025	0.616684569604126	1025	0.310612943790883	
1030	0.98214	1030	0.621870870927197	1030	0.292984634825795	
1035	0.98203	1035	0.627706339397679	1035	0.274293676137682	
1040	0.98192	1040	0.635911705290128	1040	0.259497944426326	
1045	0.98181	1045	0.641885942034006	1045	0.246717157409087	
1050	0.9817	1050	0.650062762767797	1050	0.233683915139301	
1055	0.98167	1055	0.656955209401955	1055	0.223534519580528	
1060	0.98164	1060	0.66352678352849	1060	0.21333570516452	
1065	0.98161	1065	0.67222635304553	1065	0.211488661555572	
1070	0.98158	1070	0.675140577469065	1070	0.199958623133241	
1075	0.98155	1075	0.680051974640604	1075	0.192479079088264	
1080	0.98152	1080	0.688872596656832	1080	0.196226112270315	
1085	0.98149	1085	0.687106621349513	1085	0.185279904543184	
1090	0.98146	1090	0.696125797071042	1090	0.184991600007218	
1095	0.98143	1095	0.702685105097643	1095	0.178309082313188	
1100	0.9814	1100	0.696462490342877	1100	0.180588762384729	
