#ReRa Photor QE measurement
Wavelength [nm]	QE[-] (Reflectance Transmittance 300-1750_calibration_calibration)	Wavelength [nm]	QE[-] (JE813 inverted ARC_Total reflectance centre)	Wavelength [nm]	QE[-] (JE813 inverted ARC_Diffuse reflectance centre)	Wavelength [nm]	QE[-] (JE813 inverted ARC_Total reflectance edge major)	Wavelength [nm]	QE[-] (JE813 inverted ARC_Diffuse reflectance edge major)	
300	0.9717	300	0.491405721143043	300	0.280623223343182	300	0.518921331574729	300	0.234711474491603	
305	0.972	305	0.518335759953463	305	0.197378318811652	305	0.456310877211145	305	0.226696451921024	
310	0.9723	310	0.536660560324509	310	0.172862438602165	310	0.471032122124288	310	0.26368633558427	
315	0.9726	315	0.535411787334941	315	0.162740040076875	315	0.550667663423092	315	0.21228953613519	
320	0.9729	320	0.576747905616155	320	0.244453254342214	320	0.505976066047606	320	0.261078067939932	
325	0.9732	325	0.55149830097225	325	0.197973296369158	325	0.575801238414354	325	0.226714950155705	
330	0.9735	330	0.51116505973631	330	0.195037436023564	330	0.522070071637379	330	0.215900169511416	
335	0.9738	335	0.519033060881048	335	0.184106506340727	335	0.590314404640884	335	0.225537123311009	
340	0.9741	340	0.469198675020404	340	0.16480355111544	340	0.454825019582071	340	0.184545575777291	
345	0.9744	345	0.29018484689639	345	0.0814786005780508	345	0.285988583227169	345	0.0815445314672951	
350	0.9747	350	0.185307417725538	350	0.0249752028392697	350	0.184967391764438	350	0.0348367810859774	
355	0.97507	355	0.164593667776363	355	0.0277213019232705	355	0.15682820546368	355	0.0287920187148311	
360	0.97544	360	0.136737964077822	360	0.02116932178318	360	0.136237193912349	360	0.0204160452199434	
365	0.97581	365	0.116526491992294	365	0.0193289239203445	365	0.113865072298061	365	0.0178673435289263	
370	0.97618	370	0.0901504088472429	370	0.0165233188488093	370	0.0855919619274097	370	0.0146182444166841	
375	0.97655	375	0.0688336162737354	375	0.013134727959987	375	0.0631071359399481	375	0.0109122475924384	
380	0.97692	380	0.0469771165432423	380	0.0110899919610272	380	0.0409612985573085	380	0.0109610633431765	
385	0.97729	385	0.0321126455261647	385	0.00872248433597311	385	0.0262861053631278	385	0.00760656732269033	
390	0.97766	390	0.0209629771260003	390	0.00886135279291636	390	0.0156065227925471	390	0.00686582760417944	
395	0.97803	395	0.0147936826254159	395	0.00739847334931147	395	0.0103118370598442	395	0.0056356635358596	
400	0.9784	400	0.0113286452312088	400	0.00663706185909177	400	0.00781721646669098	400	0.00593868102348771	
405	0.97864	405	0.00960154784110319	405	0.00698668535866127	405	0.00663072471887509	405	0.00508827458399447	
410	0.97888	410	0.010289897110295	410	0.00592501505322441	410	0.00746655996363613	410	0.00495181575145956	
415	0.97912	415	0.0108957212061762	415	0.00572095699182414	415	0.0106879339422183	415	0.00469926153990399	
420	0.97936	420	0.0117903320580319	420	0.00587636036918255	420	0.013330201118274	420	0.00432649241047191	
425	0.9796	425	0.012354872621107	425	0.00555499840423671	425	0.0166907151864859	425	0.00477898014387687	
430	0.97984	430	0.0130493777338216	430	0.00550542821916553	430	0.019369918555961	430	0.00443964281193383	
435	0.98008	435	0.0147409935902409	435	0.00561635561037989	435	0.0210312784163422	435	0.00479258273130169	
440	0.98032	440	0.0160410686902767	440	0.00563313636142937	440	0.023295833745267	440	0.00466272839510426	
445	0.98056	445	0.0176554771060015	445	0.00634179909592781	445	0.0255609019755505	445	0.00533390610012686	
450	0.9808	450	0.0265113291105161	450	0.00779897588368927	450	0.0262822794913029	450	0.00702674381935531	
455	0.980920000000001	455	0.0365595608463341	455	0.0115947762945259	455	0.0242896898168459	455	0.0105969807162142	
460	0.98104	460	0.0348946037756826	460	0.0113397628231691	460	0.0380442717157339	460	0.00980139502404591	
465	0.98116	465	0.0355420332030779	465	0.0177085302700905	465	0.0417174473657193	465	0.0133669535473906	
470	0.98128	470	0.0505266058542897	470	0.0159857440982518	470	0.0442492859665387	470	0.0159997560197072	
475	0.9814	475	0.0714563881555876	475	0.0184736564461784	475	0.0475778662366436	475	0.0198679110708472	
480	0.98152	480	0.0727446070827894	480	0.02223447966013	480	0.0575908953098653	480	0.0244946088574927	
485	0.98164	485	0.0571766913789816	485	0.0226653922265138	485	0.0744303812237367	485	0.0247928033806918	
490	0.98176	490	0.0546254515849549	490	0.027893416733553	490	0.0837375521856207	490	0.0306568458200236	
495	0.98188	495	0.0781522076311375	495	0.0318789397936513	495	0.080858202599879	495	0.0333509773175794	
500	0.982	500	0.109667263336476	500	0.0349649459429868	500	0.0732774019516881	500	0.0384882414920996	
505	0.98205	505	0.117797128520713	505	0.0371363159861761	505	0.0754184550242699	505	0.0421582330501402	
510	0.9821	510	0.0995463184298112	510	0.0404363193069538	510	0.0966990661393625	510	0.048674004965629	
515	0.98215	515	0.0795617809371975	515	0.046396606964769	515	0.117866167319891	515	0.0512442578711759	
520	0.9822	520	0.0837803819145536	520	0.0506499939168237	520	0.130834917913041	520	0.055446054010921	
525	0.98225	525	0.113678304604271	525	0.0536735399055488	525	0.127980602683773	525	0.0593405814150245	
530	0.9823	530	0.14973839844164	530	0.0580124107579899	530	0.112804997299284	530	0.066152242789487	
535	0.98235	535	0.169719728281267	535	0.0595424171387608	535	0.1039140108646	535	0.0766714788110764	
540	0.9824	540	0.164752534749269	540	0.0650778183590484	540	0.109055695278387	540	0.0813133041999271	
545	0.98245	545	0.14392955860354	545	0.0719816153176628	545	0.13177647337226	545	0.0865045782358098	
550	0.9825	550	0.131397727440959	550	0.0798226386991353	550	0.161042169455676	550	0.0896472835974408	
555	0.98258	555	0.140505800484947	555	0.0857378691861617	555	0.181174213943979	555	0.0916710927431413	
560	0.98266	560	0.174749700460565	560	0.0888130555462014	560	0.189458436744709	560	0.0970215091285013	
565	0.98274	565	0.219692899848224	565	0.0895803332081352	565	0.183203327488069	565	0.10398206621868	
570	0.98282	570	0.252751630589948	570	0.088612811544192	570	0.171319088800798	570	0.113548154557732	
575	0.9829	575	0.268071470801448	575	0.090247656616021	575	0.164883828250989	575	0.124680120076097	
580	0.98298	580	0.261573081524433	580	0.0934551577223974	580	0.173535456087252	580	0.132679929964303	
585	0.98306	585	0.244594447271487	585	0.1016289944647	585	0.195759415128749	585	0.140420055398489	
590	0.98314	590	0.221467194775556	590	0.112694018988535	590	0.228310676559123	590	0.143618827881371	
595	0.98322	595	0.210577611421289	595	0.123901949725356	595	0.264195012794363	595	0.145607249021496	
600	0.9833	600	0.221164314191674	600	0.134822659183036	600	0.291935653018815	600	0.146464636071831	
605	0.98322	605	0.251638978710059	605	0.141443995414617	605	0.310205925452601	605	0.147204308178917	
610	0.98314	610	0.297465038914119	610	0.145120451910042	610	0.320503320443391	610	0.15351749924674	
615	0.98306	615	0.34545812504864	615	0.147311816478585	615	0.321164720350939	615	0.163882182556389	
620	0.98298	620	0.390917014050582	620	0.147672192865939	620	0.322056789274065	620	0.182246035226901	
625	0.9829	625	0.426082726032873	625	0.150985705070452	625	0.327073216588859	625	0.20535821699286	
630	0.98282	630	0.452394344249913	630	0.155686787577924	630	0.337804137455441	630	0.233150102966953	
635	0.98274	635	0.466763007438703	635	0.163277732797546	635	0.35716481128056	635	0.258404755280344	
640	0.98266	640	0.472698524804991	640	0.176498639574131	640	0.383393141065124	640	0.277502756841169	
645	0.98258	645	0.478727538431708	645	0.194210047288528	645	0.420498472725246	645	0.290992073138478	
650	0.9825	650	0.491472073825989	650	0.221822556536853	650	0.464186741550064	650	0.298298146230548	
655	0.98253	655	0.542157845102513	655	0.265120320508382	655	0.532998915557353	655	0.316880230260299	
660	0.98256	660	0.636851874718338	660	0.324944326036344	660	0.628546406515586	660	0.342805502691877	
665	0.98259	665	0.733453912450761	665	0.375620515742506	665	0.709365791693359	665	0.360135006800788	
670	0.98262	670	0.795774170837398	670	0.392843608968024	670	0.757676850355097	670	0.366155974633595	
675	0.98265	675	0.82334916233305	675	0.381982158620731	675	0.785371859665527	675	0.372596592168976	
680	0.98268	680	0.834576682102597	680	0.359724181691046	680	0.804314014977665	680	0.391130672205888	
685	0.98271	685	0.837721487576016	685	0.333844471936431	685	0.820020176933824	685	0.419383587882408	
690	0.98274	690	0.838446943865589	690	0.311080340080001	690	0.832051344018222	690	0.45464640971959	
695	0.98277	695	0.837990684023007	695	0.294224349058034	695	0.841192245023337	695	0.491271934863434	
700	0.9828	700	0.835951313577514	700	0.284113215691549	700	0.846418052832765	700	0.522505156289602	
705	0.98277	705	0.836537507826758	705	0.282549497702936	705	0.850433200771962	705	0.545810135534597	
710	0.98274	710	0.835806060761613	710	0.290041626812798	710	0.853603952497853	710	0.555891903426435	
715	0.98271	715	0.837774888723835	715	0.307728865953465	715	0.853757289265714	715	0.551860486556867	
720	0.98268	720	0.843254053661549	720	0.332287553645187	720	0.855679287698639	720	0.533466704471886	
725	0.98265	725	0.84913200175924	725	0.366902571822544	725	0.855452086198063	725	0.503021825114632	
730	0.98262	730	0.859524830640882	730	0.403454277693017	730	0.855534064431314	730	0.467779324836119	
735	0.98259	735	0.870188396770582	735	0.434398963851548	735	0.856335273283544	735	0.429254675615681	
740	0.98256	740	0.881994919582027	740	0.456410724120523	740	0.856278678446325	740	0.393137936733887	
745	0.98253	745	0.892367940667406	745	0.459564848301564	745	0.857278149577521	745	0.361121048087957	
750	0.9825	750	0.901186848471698	750	0.447704769896095	750	0.857862941708385	750	0.335646489252497	
755	0.98258	755	0.909386862989783	755	0.42458331574975	755	0.861604832017575	755	0.320835129248709	
760	0.98266	760	0.911280061029192	760	0.393323008398839	760	0.864435603431055	760	0.315018099511479	
765	0.98274	765	0.915199567693489	765	0.361485105068126	765	0.869091415202823	765	0.32189887217839	
770	0.98282	770	0.917509808425888	770	0.330819988381454	770	0.877664171045145	770	0.338566322013913	
775	0.9829	775	0.919791033278953	775	0.305317373418005	775	0.88657096236891	775	0.36655160938896	
780	0.98298	780	0.926419159453342	780	0.283867398789776	780	0.895875740063003	780	0.404214274439025	
785	0.98306	785	0.928993915391924	785	0.266737688637858	785	0.904314048528233	785	0.445755643870441	
790	0.98314	790	0.933868323100123	790	0.256664080956481	790	0.910232237477553	790	0.492937533282267	
795	0.98322	795	0.936803177036191	795	0.250263532777854	795	0.912532077575973	795	0.535622921297504	
800	0.9833	800	0.938169324470104	800	0.250083489354762	800	0.914918955952409	800	0.572371847860139	
805	0.9832	805	0.941553688343628	805	0.255481040076817	805	0.915114142936252	805	0.601352537544162	
810	0.9831	810	0.941532132774831	810	0.268224018720385	810	0.91313489203301	810	0.611139613683869	
815	0.983	815	0.942710321675311	815	0.289048387430511	815	0.911808704888507	815	0.608104432958397	
820	0.9829	820	0.940759583187203	820	0.318530462780511	820	0.910833564968349	820	0.588029854831246	
825	0.9828	825	0.94103799599849	825	0.356096750449023	825	0.911025503099935	825	0.557185367316765	
830	0.9827	830	0.939197816557836	830	0.398644800084628	830	0.910636581722151	830	0.513487031324659	
835	0.9826	835	0.936381672214381	835	0.439605985129279	835	0.91187583147496	835	0.465501864752851	
840	0.9825	840	0.936337024655461	840	0.475630690450583	840	0.913392125527383	840	0.41778818231361	
845	0.9824	845	0.932834225953907	845	0.497519985430829	845	0.913507355540398	845	0.369480347025974	
850	0.9823	850	0.932863669846108	850	0.505986568502788	850	0.916681688584741	850	0.328750535381085	
855	0.98232	855	0.932098555701215	855	0.495708406103609	855	0.918020324802368	855	0.293340462328939	
860	0.98234	860	0.932608826309632	860	0.472971358674033	860	0.920775388421122	860	0.263870791641061	
865	0.98236	865	0.935154107425007	865	0.443617833272696	865	0.922748863546668	865	0.242257608583078	
870	0.98238	870	0.935246905048899	870	0.408788857829005	870	0.922194249506402	870	0.225528939587822	
875	0.9824	875	0.937017001432037	875	0.375898088064472	875	0.923993357552338	875	0.216845778716323	
880	0.98242	880	0.936099599606264	880	0.342623587169869	880	0.920175785244415	880	0.211978494699002	
885	0.98244	885	0.936448524231155	885	0.315139921469893	885	0.92310468088601	885	0.214357461649089	
890	0.98246	890	0.938273477353942	890	0.288515103155904	890	0.92287247178006	890	0.222758860145094	
895	0.98248	895	0.937175357660846	895	0.265536946629993	895	0.922052533889896	895	0.234461844996023	
900	0.9825	900	0.938538657155066	900	0.248956057869554	900	0.923026606629137	900	0.25601229053527	
905	0.98257	905	0.937293893972448	905	0.230946197300183	905	0.920107037010455	905	0.280542418223046	
910	0.98264	910	0.936666507464096	910	0.219338282806362	910	0.918835819578902	910	0.314567855593867	
915	0.98271	915	0.937326803538523	915	0.210479328090126	915	0.918808729263812	915	0.355722496980661	
920	0.98278	920	0.935644053910234	920	0.203170995643346	920	0.917399847095352	920	0.39686042751639	
925	0.98285	925	0.936911824916774	925	0.200674575152658	925	0.915398681186832	925	0.443846824867801	
930	0.98292	930	0.935194238737218	930	0.200140568603733	930	0.913419798852915	930	0.487910603510863	
935	0.98299	935	0.935043261983382	935	0.203607545634075	935	0.911118115832973	935	0.52996266333879	
940	0.98306	940	0.935314019324729	940	0.212105958886776	940	0.908073190715571	940	0.566613931198042	
945	0.98313	945	0.933680525846474	945	0.225831684600941	945	0.906182305430285	945	0.593645211818051	
950	0.9832	950	0.936093316911726	950	0.244390215115669	950	0.905323036062244	950	0.606038984278091	
955	0.98316	955	0.93405837385082	955	0.266125437213814	955	0.90101903075803	955	0.602443669361074	
960	0.98312	960	0.936001121438325	960	0.293787607116545	960	0.89926537329996	960	0.587766704211133	
965	0.98308	965	0.93326267514036	965	0.326769973391037	965	0.898801632022718	965	0.560634907083952	
970	0.98304	970	0.933642134099155	970	0.365397546821597	970	0.899013394107022	970	0.527647370659509	
975	0.983	975	0.931795117202866	975	0.400367763587953	975	0.897595241731962	975	0.485605747157644	
980	0.98296	980	0.932254465928777	980	0.437487352433269	980	0.901783716624418	980	0.44420334827116	
985	0.98292	985	0.929109322856183	985	0.46752789351605	985	0.901547039830531	985	0.398442053957593	
990	0.98288	990	0.926545117860586	990	0.485710048643142	990	0.902025965516387	990	0.354914162443838	
995	0.98284	995	0.927984495368112	995	0.496157522547814	995	0.90579557266071	995	0.316785075277851	
1000	0.9828	1000	0.925926812245025	1000	0.493602686804274	1000	0.906496069244351	1000	0.280300873963605	
1005	0.98269	1005	0.927806504334141	1005	0.480626099002055	1005	0.910036678744992	1005	0.250273403727971	
1010	0.98258	1010	0.929085052915954	1010	0.4590917316895	1010	0.911190778270257	1010	0.222623236313192	
1015	0.98247	1015	0.926529011405343	1015	0.433483156159898	1015	0.912389521880213	1015	0.202316056612665	
1020	0.98236	1020	0.928606336318946	1020	0.405733342873548	1020	0.913638291085554	1020	0.184675525375035	
1025	0.98225	1025	0.928843502848283	1025	0.376195507023353	1025	0.912987209039636	1025	0.169532925225305	
1030	0.98214	1030	0.92945131977189	1030	0.351265144189709	1030	0.917302662530597	1030	0.159906221665196	
1035	0.98203	1035	0.930161863181493	1035	0.324137419662092	1035	0.915784774630283	1035	0.150639701585913	
1040	0.98192	1040	0.930218981939762	1040	0.30155272979911	1040	0.917064012240388	1040	0.145725555422322	
1045	0.98181	1045	0.932269849326806	1045	0.281175354474036	1045	0.917209010072601	1045	0.141212991736232	
1050	0.9817	1050	0.928314819015533	1050	0.259275292391074	1050	0.91594299598202	1050	0.139931285050129	
1055	0.98167	1055	0.933383591096981	1055	0.243890573346782	1055	0.919238917614409	1055	0.143237385768531	
1060	0.98164	1060	0.929923585540326	1060	0.229173484200887	1060	0.912248013647221	1060	0.14312349876554	
1065	0.98161	1065	0.927639577288551	1065	0.216619972764464	1065	0.918153881298373	1065	0.149984779673537	
1070	0.98158	1070	0.928256558128512	1070	0.203445990365652	1070	0.915652186103886	1070	0.153858581949244	
1075	0.98155	1075	0.927476489699351	1075	0.189659994560713	1075	0.913556461025758	1075	0.163877762505805	
1080	0.98152	1080	0.929438540741156	1080	0.184040229536101	1080	0.913096747811661	1080	0.177630564056387	
1085	0.98149	1085	0.924341391793227	1085	0.178684287967245	1085	0.914362609333124	1085	0.195936043842979	
1090	0.98146	1090	0.928066939936985	1090	0.17235532254638	1090	0.912599886910666	1090	0.21732027311457	
1095	0.98143	1095	0.924769925247448	1095	0.168332183901791	1095	0.905792560182054	1095	0.233612732637481	
1100	0.9814	1100	0.914444500681402	1100	0.16574627402803	1100	0.899953162382816	1100	0.268804251173424	
